 opening input file input_HTHH.inp                                              

 output file name=output_file.txt                                                                 
 reading whether to read from met. file
Reading atmospheric data from file

 Opening metfile.txt                                                                     
 metfile format=old-style plumeria
layer     p (hPa)  z a.s.l. (m)       T (C) dew point (C)        rh    wind dir     wnd spd
                                                                     deg CW of N        m/s
    1   1000.0000     31.0000    300.6500    296.1500      0.7651    112.5000      5.6000
    2    975.0000    256.0000    298.7500    295.4500      0.8201    112.2000      5.9000
    3    950.0000    485.0000    297.0500    294.0500      0.8333    111.7000      6.4000
    4    925.0000    718.0000    295.5500    292.2500      0.8161    110.9000      7.0000
    5    900.0000    957.0000    294.0500    290.9500      0.8245    110.9000      7.6000
    6    850.0000   1450.0000    291.3500    288.5500      0.8371    114.7000      8.1000
    7    800.0000   1969.0000    288.9500    284.4500      0.7459    124.8000      7.9000
    8    750.0000   2516.0000    286.8500    278.7500      0.5803    133.3000      7.8000
    9    700.0000   3095.0000    284.0500    275.5500      0.5570    134.0000      8.0000
   10    650.0000   3710.0000    281.0500    273.8500      0.6034    129.0000      8.8000
   11    600.0000   4367.0000    277.7500    271.4500      0.6361    127.4000      8.9000
   12    550.0000   5071.0000    273.6500    269.4500      0.7340    120.5000      9.2000
   13    500.0000   5832.0000    270.1500    259.5500      0.4378    113.1000      8.2000
   14    450.0000   6659.0000    266.1500    245.5500      0.1760    115.3000      7.8000
   15    400.0000   7568.0000    260.4500    249.4500      0.3931    109.3000     10.2000
   16    350.0000   8571.0000    252.7500    240.3500      0.3215    107.9000      8.7000
   17    300.0000   9694.0000    244.3500    209.9500      0.0223     86.9000      8.4000
   18    250.0000  10971.0000    234.3500    192.7500      0.0050     74.8000     11.4000
   19    200.0000  12461.0000    221.6500    188.7500      0.0105     72.6000     13.8000
   20    150.0000  14262.0000    206.5500    169.8500      0.0021     62.4000     14.0000
   21    100.0000  16618.0000    191.9500    147.9500      0.0001    209.1000      6.5000
   22     70.0000  18618.0000    193.6500    142.6500      0.0000    260.2000     13.4000
   23     50.0000  20576.0000    204.8500    138.8500      0.0000    -84.9000     13.7000
   24     40.0000  21952.0000    214.1500    136.4500      0.0000    239.7000     16.2000
   25     30.0000  23753.0000    214.1500    134.1500      0.0000    -76.9000     14.6000
   26     20.0000  26333.0000    222.7500    130.0500      0.0000    268.8000     22.7000
   27     15.0000  28228.0000    226.0500    133.3500      0.0000    268.4000     17.6000
 Dewpoint was <-270 C.  Changed to -270.
   28     10.0000  30944.0000    231.2500      3.1500      0.0000    -87.3000     19.4000
 Dewpoint was <-270 C.  Changed to -270.
   29      7.0000  33368.0000    234.1500      3.1500      0.0000    -71.9000     23.5000
 Dewpoint was <-270 C.  Changed to -270.
   30      5.0000  35705.0000    241.0500      3.1500      0.0000    -85.4000     32.4000
 Dewpoint was <-270 C.  Changed to -270.
   31      3.0000  39410.0000    254.2500      3.1500      0.0000    263.8000     43.2000
 Dewpoint was <-270 C.  Changed to -270.
   32      2.0000  42482.0000    261.9500      3.1500      0.0000    267.2000     50.7000
 Dewpoint was <-270 C.  Changed to -270.
   33      1.0000  47797.0000    258.7500      3.1500      0.0000    266.7000     64.3000
 Dewpoint was <-270 C.  Changed to -270.
   34      0.7000  50472.0000    255.0500      3.1500      0.0000    259.9000     65.4000
 Dewpoint was <-270 C.  Changed to -270.
   35      0.4000  54629.0000    253.5500      3.1500      0.0000    264.4000     59.1000
 Dewpoint was <-270 C.  Changed to -270.
   36      0.2000  59822.0000    258.2500      3.1500      0.0000    250.2000     42.6000
 Dewpoint was <-270 C.  Changed to -270.
   37      0.1000  64949.0000    239.2500      3.1500      0.0000    201.5000     24.0000
 Dewpoint was <-270 C.  Changed to -270.
   38      0.0700  67369.0000    224.9500      3.1500      0.0000    228.6000     22.4000
 Dewpoint was <-270 C.  Changed to -270.
   39      0.0400  71028.0000    221.4500      3.1500      0.0000    257.2000     31.3000
 Dewpoint was <-270 C.  Changed to -270.
   40      0.0200  75419.0000    207.3500      3.1500      0.0000    268.1000     22.6000
 Dewpoint was <-270 C.  Changed to -270.
   41      0.0100  79335.0000    185.5500      3.1500      0.0000    248.1000     21.6000
 Reading vent properties
         vent elevation (m asl)=    144.
    Air temperature at vent (K)=  299.70
              vent diameter (m)=   869.0
            exit velocity (m/s)=   103.3
      mass fraction added water=   0.000
 Reading magma properties
       magma temperature (K)=1173.1
       mass fraction H2O gas= 0.0300
           mass fraction air= 0.0010
magma specific heat (J/kg K)=1000.0
       magma density (kg/m3)=2500.0
 finished with read_input

Output from Plumeria 2, fortran version, run date 2022.02.09  16:43

Input values:
      Using multilayered atmosphere from file metfile.txt                                                                     
                           Vent diameter (m):   869.0
                          Vent elevation (m):   144.0
                      Initial velocity (m/s):   103.3
                       Magma temperature (C):    900.
                         Weight fraction gas:   0.030
                         Weight fraction air:   0.001
               Magma specific heat, (J/kg K):  1000.0
                      Magma density, (kg/m3):  2500.0
                     Mixture density (kg/m3):   5.948
                   Mass fraction water added:   0.000
                           Mass flux, (kg/s):  0.364E+09
                 Mass flux of solids, (kg/s):  0.353E+09
                   Mixture sound speed (m/s):   144.0
**********************************************************************************************************************************************************************************************
   i        s        z        x        y       m_m       m_a       m_w       m_l       m_i      v       u          r   T_mix   T_air   rho_mix   rho_air    Time     p_air     water       ice
       meters   meters   meters   meters                                                      m/s     m/s          m  Kelvin  Kelvin     kg/m3     kg/m3 seconds        Pa      g/m3      g/m3
   1      0.0      0.0      0.0      0.0 0.969E+00 0.100E-02 0.300E-01 0.000E+00 0.000E+00    5.75   103.30     434.5  1173.0   299.7     5.948     1.148     0.0   98721.4 0.000E+00 0.000E+00
   2      1.0      1.0     -0.0      0.0 0.969E+00 0.123E-02 0.300E-01 0.000E+00 0.000E+00    5.75   103.20     435.8  1172.7   299.7     5.921     1.148     0.0   98710.1 0.000E+00 0.000E+00
   3      2.5      2.5     -0.0      0.0 0.968E+00 0.158E-02 0.300E-01 0.000E+00 0.000E+00    5.75   103.05     437.6  1172.4   299.7     5.881     1.148     0.0   98693.2 0.000E+00 0.000E+00
   4      4.6      4.6     -0.0      0.0 0.968E+00 0.207E-02 0.300E-01 0.000E+00 0.000E+00    5.76   102.84     440.2  1172.0   299.7     5.826     1.147     0.0   98669.8 0.000E+00 0.000E+00
   5      7.3      7.3     -0.0      0.0 0.967E+00 0.270E-02 0.299E-01 0.000E+00 0.000E+00    5.76   102.56     443.6  1171.4   299.6     5.757     1.147     0.1   98639.5 0.000E+00 0.000E+00
   6     10.6     10.6     -0.0      0.0 0.967E+00 0.347E-02 0.299E-01 0.000E+00 0.000E+00    5.76   102.23     447.8  1170.7   299.6     5.674     1.147     0.1   98602.1 0.000E+00 0.000E+00
   7     14.5     14.5     -0.0      0.0 0.966E+00 0.438E-02 0.299E-01 0.000E+00 0.000E+00    5.77   101.83     452.6  1169.8   299.6     5.579     1.146     0.1   98558.0 0.000E+00 0.000E+00
   8     19.0     19.0     -0.0      0.0 0.965E+00 0.542E-02 0.299E-01 0.000E+00 0.000E+00    5.78   101.38     458.2  1168.8   299.5     5.475     1.146     0.2   98507.5 0.000E+00 0.000E+00
   9     24.0     24.0     -0.0      0.0 0.964E+00 0.657E-02 0.299E-01 0.000E+00 0.000E+00    5.78   100.88     464.3  1167.8   299.5     5.364     1.145     0.2   98451.5 0.000E+00 0.000E+00
  10     29.4     29.4     -0.0      0.0 0.962E+00 0.782E-02 0.299E-01 0.000E+00 0.000E+00    5.79   100.34     470.9  1166.6   299.4     5.249     1.145     0.3   98390.5 0.000E+00 0.000E+00
  11     35.2     35.2     -0.0      0.0 0.961E+00 0.916E-02 0.299E-01 0.000E+00 0.000E+00    5.80    99.76     478.0  1165.4   299.4     5.131     1.144     0.3   98325.2 0.000E+00 0.000E+00
  12     41.4     41.4     -0.0      0.0 0.960E+00 0.106E-01 0.298E-01 0.000E+00 0.000E+00    5.81    99.14     485.5  1164.1   299.3     5.013     1.144     0.4   98256.2 0.000E+00 0.000E+00
  13     47.8     47.8     -0.0      0.0 0.958E+00 0.120E-01 0.298E-01 0.000E+00 0.000E+00    5.81    98.50     493.2  1162.7   299.3     4.896     1.143     0.5   98184.3 0.000E+00 0.000E+00
  14     54.4     54.4     -0.0      0.0 0.957E+00 0.135E-01 0.298E-01 0.000E+00 0.000E+00    5.82    97.85     501.2  1161.3   299.2     4.781     1.142     0.5   98109.8 0.000E+00 0.000E+00
  15     61.3     61.3     -0.0      0.0 0.955E+00 0.151E-01 0.298E-01 0.000E+00 0.000E+00    5.83    97.17     509.3  1159.8   299.2     4.669     1.142     0.6   98033.2 0.000E+00 0.000E+00
  16     68.3     68.3     -0.0      0.0 0.954E+00 0.166E-01 0.298E-01 0.000E+00 0.000E+00    5.84    96.48     517.6  1158.4   299.1     4.560     1.141     0.7   97955.0 0.000E+00 0.000E+00
  17     75.4     75.4     -0.0      0.0 0.952E+00 0.182E-01 0.297E-01 0.000E+00 0.000E+00    5.85    95.78     526.1  1156.9   299.1     4.454     1.140     0.8   97875.4 0.000E+00 0.000E+00
  18     82.6     82.6     -0.0      0.0 0.950E+00 0.199E-01 0.297E-01 0.000E+00 0.000E+00    5.86    95.07     534.6  1155.4   299.0     4.353     1.140     0.8   97794.7 0.000E+00 0.000E+00
  19     89.9     89.9     -0.1      0.0 0.949E+00 0.215E-01 0.297E-01 0.000E+00 0.000E+00    5.87    94.35     543.2  1153.9   298.9     4.255     1.139     0.9   97713.1 0.000E+00 0.000E+00
  20     97.3     97.3     -0.1      0.0 0.947E+00 0.231E-01 0.297E-01 0.000E+00 0.000E+00    5.88    93.63     551.9  1152.4   298.9     4.161     1.138     1.0   97630.9 0.000E+00 0.000E+00
  21    104.7    104.7     -0.1      0.0 0.946E+00 0.247E-01 0.297E-01 0.000E+00 0.000E+00    5.89    92.91     560.6  1150.8   298.8     4.071     1.138     1.1   97548.0 0.000E+00 0.000E+00
  22    112.1    112.1     -0.1      0.0 0.944E+00 0.264E-01 0.296E-01 0.000E+00 0.000E+00    5.90    92.18     569.3  1149.3   298.7     3.985     1.137     1.1   97464.8 0.000E+00 0.000E+00
  23    119.6    119.6     -0.1      0.0 0.942E+00 0.280E-01 0.296E-01 0.000E+00 0.000E+00    5.92    91.46     578.1  1147.8   298.7     3.903     1.136     1.2   97381.2 0.000E+00 0.000E+00
  24    127.2    127.2     -0.1      0.0 0.941E+00 0.297E-01 0.296E-01 0.000E+00 0.000E+00    5.93    90.73     586.9  1146.2   298.6     3.824     1.135     1.3   97297.3 0.000E+00 0.000E+00
  25    134.7    134.7     -0.1      0.0 0.939E+00 0.313E-01 0.296E-01 0.000E+00 0.000E+00    5.95    90.00     595.7  1144.7   298.6     3.748     1.135     1.4   97213.3 0.000E+00 0.000E+00
  26    142.3    142.3     -0.1      0.1 0.938E+00 0.329E-01 0.295E-01 0.000E+00 0.000E+00    5.97    89.27     604.5  1143.2   298.5     3.675     1.134     1.5   97129.1 0.000E+00 0.000E+00
  27    149.9    149.9     -0.1      0.1 0.936E+00 0.346E-01 0.295E-01 0.000E+00 0.000E+00    5.98    88.54     613.3  1141.7   298.5     3.606     1.133     1.6   97044.8 0.000E+00 0.000E+00
  28    157.5    157.5     -0.2      0.1 0.934E+00 0.362E-01 0.295E-01 0.000E+00 0.000E+00    6.00    87.81     622.2  1140.1   298.4     3.539     1.132     1.7   96960.4 0.000E+00 0.000E+00
  29    165.1    165.1     -0.2      0.1 0.933E+00 0.378E-01 0.295E-01 0.000E+00 0.000E+00    6.02    87.08     631.1  1138.6   298.4     3.475     1.131     1.7   96876.0 0.000E+00 0.000E+00
  30    172.7    172.7     -0.2      0.1 0.931E+00 0.394E-01 0.295E-01 0.000E+00 0.000E+00    6.03    86.36     640.0  1137.1   298.3     3.413     1.131     1.8   96791.6 0.000E+00 0.000E+00
  31    180.3    180.3     -0.2      0.1 0.930E+00 0.410E-01 0.294E-01 0.000E+00 0.000E+00    6.05    85.63     648.9  1135.6   298.2     3.354     1.130     1.9   96707.1 0.000E+00 0.000E+00
  32    187.9    187.9     -0.2      0.1 0.928E+00 0.426E-01 0.294E-01 0.000E+00 0.000E+00    6.07    84.91     657.8  1134.1   298.2     3.297     1.129     2.0   96622.7 0.000E+00 0.000E+00
  33    195.5    195.5     -0.3      0.1 0.926E+00 0.442E-01 0.294E-01 0.000E+00 0.000E+00    6.08    84.19     666.8  1132.6   298.1     3.242     1.128     2.1   96538.3 0.000E+00 0.000E+00
  34    200.0    200.0     -0.3      0.1 0.925E+00 0.452E-01 0.294E-01 0.000E+00 0.000E+00    6.09    83.76     672.1  1131.7   298.1     3.210     1.128     2.1   96488.8 0.000E+00 0.000E+00
  35    205.0    205.0     -0.3      0.1 0.924E+00 0.462E-01 0.294E-01 0.000E+00 0.000E+00    6.10    83.29     677.9  1130.8   298.1     3.176     1.127     2.2   96433.7 0.000E+00 0.000E+00
  36    210.4    210.4     -0.3      0.1 0.923E+00 0.474E-01 0.294E-01 0.000E+00 0.000E+00    6.11    82.78     684.3  1129.7   298.0     3.140     1.127     2.3   96373.7 0.000E+00 0.000E+00
  37    216.2    216.2     -0.3      0.1 0.922E+00 0.486E-01 0.293E-01 0.000E+00 0.000E+00    6.13    82.23     691.2  1128.6   298.0     3.103     1.126     2.3   96309.5 0.000E+00 0.000E+00
  38    222.3    222.3     -0.3      0.1 0.921E+00 0.498E-01 0.293E-01 0.000E+00 0.000E+00    6.14    81.65     698.5  1127.4   297.9     3.064     1.126     2.4   96241.7 0.000E+00 0.000E+00
  39    228.8    228.8     -0.4      0.2 0.920E+00 0.512E-01 0.293E-01 0.000E+00 0.000E+00    6.15    81.05     706.1  1126.1   297.9     3.025     1.125     2.5   96171.0 0.000E+00 0.000E+00
  40    235.4    235.4     -0.4      0.2 0.918E+00 0.525E-01 0.293E-01 0.000E+00 0.000E+00    6.17    80.43     714.0  1124.9   297.8     2.985     1.124     2.6   96097.7 0.000E+00 0.000E+00
  41    242.2    242.2     -0.4      0.2 0.917E+00 0.539E-01 0.293E-01 0.000E+00 0.000E+00    6.18    79.79     722.2  1123.6   297.8     2.946     1.124     2.7   96022.4 0.000E+00 0.000E+00
  42    249.2    249.2     -0.4      0.2 0.915E+00 0.553E-01 0.292E-01 0.000E+00 0.000E+00    6.20    79.13     730.6  1122.2   297.7     2.907     1.123     2.8   95945.5 0.000E+00 0.000E+00
  43    256.3    256.3     -0.5      0.2 0.914E+00 0.568E-01 0.292E-01 0.000E+00 0.000E+00    6.22    78.47     739.1  1120.9   297.7     2.869     1.122     2.8   95867.2 0.000E+00 0.000E+00
  44    263.5    263.5     -0.5      0.2 0.913E+00 0.583E-01 0.292E-01 0.000E+00 0.000E+00    6.23    77.80     747.8  1119.5   297.6     2.831     1.121     2.9   95787.8 0.000E+00 0.000E+00
  45    270.8    270.8     -0.5      0.2 0.911E+00 0.597E-01 0.292E-01 0.000E+00 0.000E+00    6.25    77.12     756.7  1118.1   297.6     2.794     1.121     3.0   95707.5 0.000E+00 0.000E+00
  46    278.2    278.2     -0.6      0.2 0.910E+00 0.612E-01 0.292E-01 0.000E+00 0.000E+00    6.26    76.43     765.7  1116.7   297.5     2.757     1.120     3.1   95626.6 0.000E+00 0.000E+00
  47    285.6    285.6     -0.6      0.2 0.908E+00 0.627E-01 0.291E-01 0.000E+00 0.000E+00    6.28    75.75     774.8  1115.3   297.5     2.722     1.119     3.2   95545.1 0.000E+00 0.000E+00
  48    293.1    293.1     -0.6      0.3 0.907E+00 0.642E-01 0.291E-01 0.000E+00 0.000E+00    6.30    75.05     784.0  1113.9   297.4     2.687     1.118     3.3   95463.2 0.000E+00 0.000E+00
  49    300.6    300.6     -0.7      0.3 0.905E+00 0.657E-01 0.291E-01 0.000E+00 0.000E+00    6.31    74.36     793.3  1112.5   297.4     2.653     1.118     3.4   95381.0 0.000E+00 0.000E+00
  50    308.1    308.1     -0.7      0.3 0.904E+00 0.672E-01 0.291E-01 0.000E+00 0.000E+00    6.33    73.66     802.7  1111.1   297.3     2.621     1.117     3.5   95298.5 0.000E+00 0.000E+00
  51    315.7    315.6     -0.7      0.3 0.902E+00 0.687E-01 0.291E-01 0.000E+00 0.000E+00    6.34    72.97     812.1  1109.7   297.2     2.588     1.116     3.6   95215.8 0.000E+00 0.000E+00
  52    323.2    323.2     -0.8      0.3 0.901E+00 0.702E-01 0.290E-01 0.000E+00 0.000E+00    6.36    72.27     821.7  1108.3   297.2     2.557     1.115     3.7   95132.9 0.000E+00 0.000E+00
  53    330.8    330.8     -0.8      0.3 0.899E+00 0.717E-01 0.290E-01 0.000E+00 0.000E+00    6.38    71.57     831.3  1106.9   297.1     2.527     1.115     3.8   95050.0 0.000E+00 0.000E+00
  54    338.4    338.4     -0.9      0.4 0.898E+00 0.731E-01 0.290E-01 0.000E+00 0.000E+00    6.39    70.88     841.0  1105.5   297.1     2.497     1.114     3.9   94967.0 0.000E+00 0.000E+00
  55    346.0    346.0     -0.9      0.4 0.896E+00 0.746E-01 0.290E-01 0.000E+00 0.000E+00    6.41    70.18     850.8  1104.1   297.0     2.468     1.113     4.1   94884.0 0.000E+00 0.000E+00
  56    353.6    353.6     -1.0      0.4 0.895E+00 0.761E-01 0.289E-01 0.000E+00 0.000E+00    6.43    69.48     860.7  1102.7   297.0     2.440     1.112     4.2   94800.9 0.000E+00 0.000E+00
  57    361.2    361.2     -1.0      0.4 0.893E+00 0.776E-01 0.289E-01 0.000E+00 0.000E+00    6.45    68.78     870.7  1101.3   296.9     2.413     1.112     4.3   94717.8 0.000E+00 0.000E+00
  58    368.8    368.8     -1.1      0.4 0.892E+00 0.791E-01 0.289E-01 0.000E+00 0.000E+00    6.47    68.08     880.7  1100.0   296.9     2.386     1.111     4.4   94634.7 0.000E+00 0.000E+00
  59    376.5    376.5     -1.1      0.5 0.891E+00 0.805E-01 0.289E-01 0.000E+00 0.000E+00    6.49    67.39     890.8  1098.6   296.8     2.360     1.110     4.5   94551.7 0.000E+00 0.000E+00
  60    384.1    384.1     -1.2      0.5 0.889E+00 0.820E-01 0.289E-01 0.000E+00 0.000E+00    6.51    66.69     901.1  1097.2   296.8     2.335     1.109     4.6   94468.7 0.000E+00 0.000E+00
  61    391.7    391.7     -1.2      0.5 0.888E+00 0.834E-01 0.288E-01 0.000E+00 0.000E+00    6.53    65.99     911.4  1095.8   296.7     2.310     1.108     4.7   94385.7 0.000E+00 0.000E+00
  62    399.4    399.4     -1.3      0.5 0.886E+00 0.849E-01 0.288E-01 0.000E+00 0.000E+00    6.55    65.30     921.8  1094.5   296.7     2.286     1.108     4.8   94302.7 0.000E+00 0.000E+00
  63    407.0    407.0     -1.3      0.5 0.885E+00 0.864E-01 0.288E-01 0.000E+00 0.000E+00    6.57    64.60     932.3  1093.1   296.6     2.262     1.107     5.0   94219.8 0.000E+00 0.000E+00
  64    414.6    414.6     -1.4      0.6 0.883E+00 0.878E-01 0.288E-01 0.000E+00 0.000E+00    6.59    63.90     942.9  1091.7   296.6     2.239     1.106     5.1   94136.9 0.000E+00 0.000E+00
  65    422.3    422.3     -1.4      0.6 0.882E+00 0.892E-01 0.288E-01 0.000E+00 0.000E+00    6.61    63.21     953.7  1090.4   296.5     2.217     1.105     5.2   94054.1 0.000E+00 0.000E+00
  66    429.9    429.9     -1.5      0.6 0.881E+00 0.907E-01 0.287E-01 0.000E+00 0.000E+00    6.63    62.51     964.5  1089.0   296.5     2.195     1.104     5.3   93971.3 0.000E+00 0.000E+00
  67    437.5    437.5     -1.6      0.6 0.879E+00 0.921E-01 0.287E-01 0.000E+00 0.000E+00    6.65    61.82     975.5  1087.7   296.4     2.174     1.104     5.4   93888.6 0.000E+00 0.000E+00
  68    445.2    445.2     -1.6      0.7 0.878E+00 0.935E-01 0.287E-01 0.000E+00 0.000E+00    6.67    61.12     986.5  1086.3   296.4     2.153     1.103     5.6   93805.9 0.000E+00 0.000E+00
